# From https://snfactory.lbl.gov/snf/snf-specstars.html
#  Wave, Flux 1e-16 erg/s/cm2/AA
3.008400000000000091e+03 3.830805433228821499e+01
3.012599999999999909e+03 4.752151867362278637e+01
3.016800000000000182e+03 6.668378090486466192e+01
3.021000000000000000e+03 1.085305000909167461e+02
3.025199999999999818e+03 1.320046017704272856e+02
3.029400000000000091e+03 1.378935690909650305e+02
3.033599999999999909e+03 1.759967399928311238e+02
3.037800000000000182e+03 2.442006970002989590e+02
3.042000000000000000e+03 2.846314172663327327e+02
3.046199999999999818e+03 2.873905126893780562e+02
3.050400000000000091e+03 2.888947636895335904e+02
3.054599999999999909e+03 2.985166504274104113e+02
3.058800000000000182e+03 3.022895204831826277e+02
3.063000000000000000e+03 3.105355041441795265e+02
3.067199999999999818e+03 3.517394366267930650e+02
3.071400000000000091e+03 4.169658573516957176e+02
3.075599999999999909e+03 4.709443058615493101e+02
3.079800000000000182e+03 5.049033188554782328e+02
3.084000000000000000e+03 5.264347095091910660e+02
3.088199999999999818e+03 5.425383190179110215e+02
3.092400000000000091e+03 5.619762028123225264e+02
3.096599999999999909e+03 5.844118800892028958e+02
3.100800000000000182e+03 6.036952294700233779e+02
3.105000000000000000e+03 6.235080223573589819e+02
3.109199999999999818e+03 6.521866979441600733e+02
3.113400000000000091e+03 6.852916064716579285e+02
3.117599999999999909e+03 7.126240403127994796e+02
3.121800000000000182e+03 7.415886975416283349e+02
3.126000000000000000e+03 7.855237265893169933e+02
3.130199999999999818e+03 8.363365568411652475e+02
3.134400000000000091e+03 8.798090347277008050e+02
3.138599999999999909e+03 9.135857437221648070e+02
3.142800000000000182e+03 9.386588210139776720e+02
3.147000000000000000e+03 9.580491036609073490e+02
3.151199999999999818e+03 9.751811976623429246e+02
3.155400000000000091e+03 9.986295486263603607e+02
3.159599999999999909e+03 1.037722048779918850e+03
3.163800000000000182e+03 1.076978941008561833e+03
3.168000000000000000e+03 1.097869977288518157e+03
3.172199999999999818e+03 1.107001305740623820e+03
3.176400000000000091e+03 1.113460666574468860e+03
3.180599999999999909e+03 1.126800797010044562e+03
3.184800000000000182e+03 1.155805949246618638e+03
3.189000000000000000e+03 1.194505671823043031e+03
3.193199999999999818e+03 1.235904784549200940e+03
3.197400000000000091e+03 1.261256198095401032e+03
3.201599999999999909e+03 1.254339538767850172e+03
3.205800000000000182e+03 1.235925820888696762e+03
3.210000000000000000e+03 1.226306950874597305e+03
3.214199999999999818e+03 1.228410333769792260e+03
3.218400000000000091e+03 1.244288867589423489e+03
3.222599999999999909e+03 1.262677521742776435e+03
3.226800000000000182e+03 1.274398225809462474e+03
3.231000000000000000e+03 1.295314832721590847e+03
3.235199999999999818e+03 1.335325021349198096e+03
3.239400000000000091e+03 1.376005275674438053e+03
3.243599999999999909e+03 1.404451257283163386e+03
3.247800000000000182e+03 1.428258113288781715e+03
3.252000000000000000e+03 1.452219221890000654e+03
3.256199999999999818e+03 1.473774747476601306e+03
3.260400000000000091e+03 1.489990453261283847e+03
3.264599999999999909e+03 1.491369654709664928e+03
3.268800000000000182e+03 1.477353944774573620e+03
3.273000000000000000e+03 1.469106377692979777e+03
3.277199999999999818e+03 1.481369376013797137e+03
3.281400000000000091e+03 1.516850947574245993e+03
3.285599999999999909e+03 1.569610426794740079e+03
3.289800000000000182e+03 1.617358376669521931e+03
3.294000000000000000e+03 1.643819261699480194e+03
3.298199999999999818e+03 1.643566497538893600e+03
3.302400000000000091e+03 1.620980922043352166e+03
3.306599999999999909e+03 1.597047862650296565e+03
3.310800000000000182e+03 1.581522451751827930e+03
3.315000000000000000e+03 1.566845552667081620e+03
3.319199999999999818e+03 1.550509427047349391e+03
3.323400000000000091e+03 1.534503995801977908e+03
3.327599999999999909e+03 1.524456454645492840e+03
3.331800000000000182e+03 1.531663654805382976e+03
3.336000000000000000e+03 1.554737847220666254e+03
3.340199999999999818e+03 1.580128154480898502e+03
3.344400000000000091e+03 1.595411893079912943e+03
3.348599999999999909e+03 1.588512764379304599e+03
3.352800000000000182e+03 1.564969792437055503e+03
3.357000000000000000e+03 1.545975375806545344e+03
3.361199999999999818e+03 1.539545557897493609e+03
3.365400000000000091e+03 1.543902512383693875e+03
3.369599999999999909e+03 1.552474786899227865e+03
3.373800000000000182e+03 1.554256122945095058e+03
3.378000000000000000e+03 1.548780829009693434e+03
3.382199999999999818e+03 1.542462748430030615e+03
3.386400000000000091e+03 1.539234339878792298e+03
3.390599999999999909e+03 1.542212217665111893e+03
3.394800000000000182e+03 1.549033705548453327e+03
3.399000000000000000e+03 1.554830049855788047e+03
3.403199999999999818e+03 1.555286168008075720e+03
3.407400000000000091e+03 1.545806099374143969e+03
3.411599999999999909e+03 1.534846835918099487e+03
3.415800000000000182e+03 1.536527672944155483e+03
3.420000000000000000e+03 1.544845466087465411e+03
3.424199999999999818e+03 1.546575082681774802e+03
3.428400000000000091e+03 1.544394626392451983e+03
3.432599999999999909e+03 1.546246958675591031e+03
3.436800000000000182e+03 1.543180530316128852e+03
3.441000000000000000e+03 1.522312836534735425e+03
3.445199999999999818e+03 1.501925454125893566e+03
3.449400000000000091e+03 1.506004039159631702e+03
3.453599999999999909e+03 1.520999892727478255e+03
3.457800000000000182e+03 1.527838729281183078e+03
3.462000000000000000e+03 1.522141853367629210e+03
3.466199999999999818e+03 1.501626828347498531e+03
3.470400000000000091e+03 1.476121770256690752e+03
3.474599999999999909e+03 1.457161285126578377e+03
3.478800000000000182e+03 1.450929570606434027e+03
3.483000000000000000e+03 1.462090670118496291e+03
3.487199999999999818e+03 1.482311721018590333e+03
3.491400000000000091e+03 1.502456958930753444e+03
3.495599999999999909e+03 1.515269191974913838e+03
3.499800000000000182e+03 1.514742466016807839e+03
3.504000000000000000e+03 1.512255106653039775e+03
3.508199999999999818e+03 1.518450246051514569e+03
3.512400000000000091e+03 1.527950615538334432e+03
3.516599999999999909e+03 1.536396507226754466e+03
3.520800000000000182e+03 1.548611726772992824e+03
3.525000000000000000e+03 1.566935110901990129e+03
3.529199999999999818e+03 1.584239048448640915e+03
3.533400000000000091e+03 1.594996172836784353e+03
3.537599999999999909e+03 1.599292145216070139e+03
3.541800000000000182e+03 1.598178145340380524e+03
3.546000000000000000e+03 1.598305493600158570e+03
3.550199999999999818e+03 1.602491060180776913e+03
3.554400000000000091e+03 1.599619369381468687e+03
3.558599999999999909e+03 1.584057367997162601e+03
3.562800000000000182e+03 1.564625368167426359e+03
3.567000000000000000e+03 1.548542168052588977e+03
3.571199999999999818e+03 1.540071588071944461e+03
3.575400000000000091e+03 1.541118319875331963e+03
3.579599999999999909e+03 1.548204252100872964e+03
3.583800000000000182e+03 1.557477295905882784e+03
3.588000000000000000e+03 1.565454271563746033e+03
3.592199999999999818e+03 1.569496088401747329e+03
3.596400000000000091e+03 1.568011619871135053e+03
3.600599999999999909e+03 1.563505813587465582e+03
3.604800000000000182e+03 1.565376846793877576e+03
3.609000000000000000e+03 1.574662520125932588e+03
3.613199999999999818e+03 1.580117022026156292e+03
3.617400000000000091e+03 1.580593480341251734e+03
3.621599999999999909e+03 1.586983062826588366e+03
3.625800000000000182e+03 1.602882050023551756e+03
3.630000000000000000e+03 1.624605819725181163e+03
3.634199999999999818e+03 1.647584154922698417e+03
3.638400000000000091e+03 1.666174059522646758e+03
3.642599999999999909e+03 1.676603190269316656e+03
3.646800000000000182e+03 1.676151856686444944e+03
3.651000000000000000e+03 1.670758152000373457e+03
3.655199999999999818e+03 1.674090626121084142e+03
3.659400000000000091e+03 1.683842578978887786e+03
3.663599999999999909e+03 1.685905214867621225e+03
3.667800000000000182e+03 1.678935307834359946e+03
3.672000000000000000e+03 1.669182833674304902e+03
3.676199999999999818e+03 1.662474502769098308e+03
3.680400000000000091e+03 1.665387155012990434e+03
3.684599999999999909e+03 1.674328073748288944e+03
3.688800000000000182e+03 1.679883004382130821e+03
3.693000000000000000e+03 1.682079970362785616e+03
3.697199999999999818e+03 1.685168630012650510e+03
3.701400000000000091e+03 1.691629357228073559e+03
3.705599999999999909e+03 1.703366804144112848e+03
3.709800000000000182e+03 1.720395353609795166e+03
3.714000000000000000e+03 1.742133595880335633e+03
3.718199999999999818e+03 1.763842333001146471e+03
3.722400000000000091e+03 1.779259017941284355e+03
3.726599999999999909e+03 1.793559115160240253e+03
3.730800000000000182e+03 1.815504453279607333e+03
3.735000000000000000e+03 1.840178882046014451e+03
3.739199999999999818e+03 1.859464385211595300e+03
3.743400000000000091e+03 1.880359041477328219e+03
3.747599999999999909e+03 1.912752570016463324e+03
3.751800000000000182e+03 1.948416939171965623e+03
3.756000000000000000e+03 1.977634762988132707e+03
3.760199999999999818e+03 2.006334608142178922e+03
3.764400000000000091e+03 2.039058685403502523e+03
3.768599999999999909e+03 2.095468646825084761e+03
3.772800000000000182e+03 2.195056422047152410e+03
3.777000000000000000e+03 2.283638125985613442e+03
3.781199999999999818e+03 2.309372321036629728e+03
3.785400000000000091e+03 2.282557355287729479e+03
3.789599999999999909e+03 2.218393128195913505e+03
3.793800000000000182e+03 2.186192450955218192e+03
3.798000000000000000e+03 2.245366991501678513e+03
3.802199999999999818e+03 2.365654624100822730e+03
3.806400000000000091e+03 2.508236048925615705e+03
3.810599999999999909e+03 2.605808692495068044e+03
3.814800000000000182e+03 2.603596666326758168e+03
3.819000000000000000e+03 2.511666296776932541e+03
3.823199999999999818e+03 2.358148875688460066e+03
3.827400000000000091e+03 2.220657340156137707e+03
3.831599999999999909e+03 2.167509080363699013e+03
3.835800000000000182e+03 2.222027068079844867e+03
3.840000000000000000e+03 2.384508121663148358e+03
3.844199999999999818e+03 2.595812419575778677e+03
3.848400000000000091e+03 2.799399255510388230e+03
3.852599999999999909e+03 2.970116019080729529e+03
3.856800000000000182e+03 3.083351364692826337e+03
3.861000000000000000e+03 3.119045078200518219e+03
3.865199999999999818e+03 3.069313948099400022e+03
3.869400000000000091e+03 2.940668030068662574e+03
3.873599999999999909e+03 2.753947840627607093e+03
3.877800000000000182e+03 2.545343748694778697e+03
3.882000000000000000e+03 2.363056973392957389e+03
3.886199999999999818e+03 2.273897896106183907e+03
3.890400000000000091e+03 2.307707394207912330e+03
3.894599999999999909e+03 2.439605117469614470e+03
3.898800000000000182e+03 2.628665588778218989e+03
3.903000000000000000e+03 2.815063217285518476e+03
3.907199999999999818e+03 2.959524708679590731e+03
3.911400000000000091e+03 3.056305703389900373e+03
3.915599999999999909e+03 3.101877303454524281e+03
3.919800000000000182e+03 3.094635032196002157e+03
3.924000000000000000e+03 3.052300285499155507e+03
3.928199999999999818e+03 3.008444971760098724e+03
3.932400000000000091e+03 2.982454864079111303e+03
3.936599999999999909e+03 2.980400848990700979e+03
3.940800000000000182e+03 2.982417683551721439e+03
3.945000000000000000e+03 2.947401088883732882e+03
3.949199999999999818e+03 2.854558831086782448e+03
3.953400000000000091e+03 2.701517211883231539e+03
3.957599999999999909e+03 2.515993182646988771e+03
3.961800000000000182e+03 2.344704729260264685e+03
3.966000000000000000e+03 2.247645602834071269e+03
3.970199999999999818e+03 2.289920919828604383e+03
3.974400000000000091e+03 2.452867598588718010e+03
3.978599999999999909e+03 2.668361698127679119e+03
3.982800000000000182e+03 2.879388447078742956e+03
3.987000000000000000e+03 3.033254030822135974e+03
3.991199999999999818e+03 3.138761181544603460e+03
3.995400000000000091e+03 3.236567912283076566e+03
3.999599999999999909e+03 3.337798654863458523e+03
4.003800000000000182e+03 3.444328016333195137e+03
4.008000000000000000e+03 3.539629687916595230e+03
4.012199999999999818e+03 3.599383384667597056e+03
4.016400000000000091e+03 3.625628799294394412e+03
4.020599999999999909e+03 3.629071444195543791e+03
4.024800000000000182e+03 3.617500885380125055e+03
4.029000000000000000e+03 3.599405035927344670e+03
4.033199999999999818e+03 3.577846776380724805e+03
4.037400000000000091e+03 3.553314902745940799e+03
4.041599999999999909e+03 3.532926456277787111e+03
4.045800000000000182e+03 3.522900965284693939e+03
4.050000000000000000e+03 3.513429215425962866e+03
4.054199999999999818e+03 3.493163520326947491e+03
4.058400000000000091e+03 3.446383132726980875e+03
4.062599999999999909e+03 3.358869465604474499e+03
4.066800000000000182e+03 3.248834773692113231e+03
4.071000000000000000e+03 3.135992749845747312e+03
4.075199999999999818e+03 3.035759756701227616e+03
4.079400000000000091e+03 2.963006959865680983e+03
4.083599999999999909e+03 2.877178884911186287e+03
4.087800000000000182e+03 2.744668993197355576e+03
4.092000000000000000e+03 2.593426860833073079e+03
4.096199999999999818e+03 2.454454288459477539e+03
4.100399999999999636e+03 2.398859459813608737e+03
4.104600000000000364e+03 2.478629265163309810e+03
4.108800000000000182e+03 2.628035640116722334e+03
4.113000000000000000e+03 2.782760535763868120e+03
4.117199999999999818e+03 2.909091132486116749e+03
4.121399999999999636e+03 2.983813820523641425e+03
4.125600000000000364e+03 3.040066039579185599e+03
4.129800000000000182e+03 3.106899568986140821e+03
4.134000000000000000e+03 3.183730589167260405e+03
4.138199999999999818e+03 3.266497288152369492e+03
4.142399999999999636e+03 3.333321384916263469e+03
4.146600000000000364e+03 3.370178999135297090e+03
4.150800000000000182e+03 3.389359522625393311e+03
4.155000000000000000e+03 3.400252733963091032e+03
4.159199999999999818e+03 3.406133344475586910e+03
4.163399999999999636e+03 3.407979541420904297e+03
4.167600000000000364e+03 3.396919037707966254e+03
4.171800000000000182e+03 3.374351305079564099e+03
4.176000000000000000e+03 3.363072848000708746e+03
4.180199999999999818e+03 3.371934523611600525e+03
4.184399999999999636e+03 3.387309404312914012e+03
4.188600000000000364e+03 3.400317557548600689e+03
4.192800000000000182e+03 3.407226158635284264e+03
4.197000000000000000e+03 3.411420982256060597e+03
4.201199999999999818e+03 3.428676739091604759e+03
4.205399999999999636e+03 3.458650146675585347e+03
4.209600000000000364e+03 3.481028614350193493e+03
4.213800000000000182e+03 3.486144761302517509e+03
4.218000000000000000e+03 3.475202403304519066e+03
4.222199999999999818e+03 3.455251402272025189e+03
4.226399999999999636e+03 3.440107858826550000e+03
4.230600000000000364e+03 3.435589957533085908e+03
4.234800000000000182e+03 3.439596084586350571e+03
4.239000000000000000e+03 3.447961609112330279e+03
4.243199999999999818e+03 3.454476558198736711e+03
4.247399999999999636e+03 3.456264170960645970e+03
4.251600000000000364e+03 3.452840029968035651e+03
4.255800000000000182e+03 3.449426013699406667e+03
4.260000000000000000e+03 3.455684273078829847e+03
4.264199999999999818e+03 3.467704827658758859e+03
4.268399999999999636e+03 3.472762092567621494e+03
4.272600000000000364e+03 3.468301010289288115e+03
4.276800000000000182e+03 3.457541263986113790e+03
4.281000000000000000e+03 3.435348486406047414e+03
4.285199999999999818e+03 3.394494131880618170e+03
4.289399999999999636e+03 3.336139173822541579e+03
4.293600000000000364e+03 3.263999549662110439e+03
4.297800000000000182e+03 3.198754071149668107e+03
4.302000000000000000e+03 3.165311405306979850e+03
4.306199999999999818e+03 3.157569086107725525e+03
4.310399999999999636e+03 3.157927146764194731e+03
4.314600000000000364e+03 3.135856469227408525e+03
4.318800000000000182e+03 3.060913588164038629e+03
4.323000000000000000e+03 2.920376087101672965e+03
4.327199999999999818e+03 2.713059496817733361e+03
4.331399999999999636e+03 2.490810399667281217e+03
4.335600000000000364e+03 2.314764639808282482e+03
4.339800000000000182e+03 2.245793516737646769e+03
4.344000000000000000e+03 2.335982696972921531e+03
4.348199999999999818e+03 2.530569278394234971e+03
4.352399999999999636e+03 2.754936870747011199e+03
4.356600000000000364e+03 2.962933337232751455e+03
4.360800000000000182e+03 3.110949180597120630e+03
4.365000000000000000e+03 3.208401854058523440e+03
4.369199999999999818e+03 3.274955511834682056e+03
4.373399999999999636e+03 3.310357163275330549e+03
4.377600000000000364e+03 3.319136424401704517e+03
4.381800000000000182e+03 3.314302562933683021e+03
4.386000000000000000e+03 3.307988568164892968e+03
4.390199999999999818e+03 3.308176283843892634e+03
4.394399999999999636e+03 3.320122307844437273e+03
4.398600000000000364e+03 3.342722425441904761e+03
4.402800000000000182e+03 3.371874012023638898e+03
4.407000000000000000e+03 3.391744689557530819e+03
4.411199999999999818e+03 3.391062210697999944e+03
4.415399999999999636e+03 3.383055698855594528e+03
4.419600000000000364e+03 3.379024377277698932e+03
4.423800000000000182e+03 3.379887820458385704e+03
4.428000000000000000e+03 3.385680953050485641e+03
4.432199999999999818e+03 3.393833685245636843e+03
4.436399999999999636e+03 3.399005454244916564e+03
4.440600000000000364e+03 3.387302210475619631e+03
4.444800000000000182e+03 3.353889938040611923e+03
4.449000000000000000e+03 3.317175455044618957e+03
4.453199999999999818e+03 3.290825500089338675e+03
4.457399999999999636e+03 3.275925655643352911e+03
4.461600000000000364e+03 3.273919463010382515e+03
4.465800000000000182e+03 3.287567783790757858e+03
4.470000000000000000e+03 3.311938078760163990e+03
4.474199999999999818e+03 3.328943833822680517e+03
4.478399999999999636e+03 3.332847885467238484e+03
4.482600000000000364e+03 3.338545359012205608e+03
4.486800000000000182e+03 3.354592968417322936e+03
4.491000000000000000e+03 3.380766253128004337e+03
4.495199999999999818e+03 3.413651772501224968e+03
4.499399999999999636e+03 3.446133096511853182e+03
4.503600000000000364e+03 3.466104353361685753e+03
4.507800000000000182e+03 3.456240669881932718e+03
4.512000000000000000e+03 3.414405307012315006e+03
4.516199999999999818e+03 3.353103213652061640e+03
4.520399999999999636e+03 3.293059078943836084e+03
4.524600000000000364e+03 3.262577767276569830e+03
4.528800000000000182e+03 3.265479569713077126e+03
4.533000000000000000e+03 3.283808454040499782e+03
4.537199999999999818e+03 3.297686815489091714e+03
4.541399999999999636e+03 3.285502057351692656e+03
4.545600000000000364e+03 3.249187860441492830e+03
4.549800000000000182e+03 3.207573685895639301e+03
4.554000000000000000e+03 3.182198027188906963e+03
4.558199999999999818e+03 3.196527912802643641e+03
4.562399999999999636e+03 3.240369513774716324e+03
4.566600000000000364e+03 3.283456825422272232e+03
4.570800000000000182e+03 3.308604204510723321e+03
4.575000000000000000e+03 3.304814275199544682e+03
4.579199999999999818e+03 3.283568120676665330e+03
4.583399999999999636e+03 3.268358849882114555e+03
4.587600000000000364e+03 3.263729572286618804e+03
4.591800000000000182e+03 3.266504999983277230e+03
4.596000000000000000e+03 3.274863589472724016e+03
4.600199999999999818e+03 3.285608606337198580e+03
4.604399999999999636e+03 3.299371086609288795e+03
4.608600000000000364e+03 3.318571840777357465e+03
4.612800000000000182e+03 3.332636945868162911e+03
4.617000000000000000e+03 3.327710259126757137e+03
4.621199999999999818e+03 3.314055104482509250e+03
4.625399999999999636e+03 3.307582325925548048e+03
4.629600000000000364e+03 3.302830724899154120e+03
4.633800000000000182e+03 3.291112168476694478e+03
4.638000000000000000e+03 3.277387297322340601e+03
4.642199999999999818e+03 3.267304118785999435e+03
4.646399999999999636e+03 3.260468924840044565e+03
4.650600000000000364e+03 3.256531475786096507e+03
4.654800000000000182e+03 3.246887217541813243e+03
4.659000000000000000e+03 3.222966814729583803e+03
4.663199999999999818e+03 3.197990505939888862e+03
4.667399999999999636e+03 3.185247701369399692e+03
4.671600000000000364e+03 3.186735036185389617e+03
4.675800000000000182e+03 3.202796914705523704e+03
